#      z (A) rho (1e-6/A2) irho (1e-6/A2)
-91.66474569   6.26825244   0.00000000
-91.56474569   6.26824180   0.00000000
-91.46474569   6.26823105   0.00000000
-91.36474569   6.26822019   0.00000000
-91.26474569   6.26820922   0.00000000
-91.16474569   6.26819815   0.00000000
-91.06474569   6.26818697   0.00000000
-90.96474569   6.26817568   0.00000000
-90.86474569   6.26816428   0.00000000
-90.76474569   6.26815277   0.00000000
-90.66474569   6.26814114   0.00000000
-90.56474569   6.26812941   0.00000000
-90.46474569   6.26811755   0.00000000
-90.36474569   6.26810559   0.00000000
-90.26474569   6.26809350   0.00000000
-90.16474569   6.26808130   0.00000000
-90.06474569   6.26806898   0.00000000
-89.96474569   6.26805654   0.00000000
-89.86474569   6.26804398   0.00000000
-89.76474569   6.26803130   0.00000000
-89.66474569   6.26801849   0.00000000
-89.56474569   6.26800557   0.00000000
-89.46474569   6.26799251   0.00000000
-89.36474569   6.26797934   0.00000000
-89.26474569   6.26796603   0.00000000
-89.16474569   6.26795260   0.00000000
-89.06474569   6.26793904   0.00000000
-88.96474569   6.26792535   0.00000000
-88.86474569   6.26791152   0.00000000
-88.76474569   6.26789757   0.00000000
-88.66474569   6.26788348   0.00000000
-88.56474569   6.26786926   0.00000000
-88.46474569   6.26785490   0.00000000
-88.36474569   6.26784041   0.00000000
-88.26474569   6.26782577   0.00000000
-88.16474569   6.26781100   0.00000000
-88.06474569   6.26779609   0.00000000
-87.96474569   6.26778104   0.00000000
-87.86474569   6.26776584   0.00000000
-87.76474569   6.26775050   0.00000000
-87.66474569   6.26773502   0.00000000
-87.56474569   6.26771939   0.00000000
-87.46474569   6.26770361   0.00000000
-87.36474569   6.26768769   0.00000000
-87.26474569   6.26767161   0.00000000
-87.16474569   6.26765539   0.00000000
-87.06474569   6.26763901   0.00000000
-86.96474569   6.26762247   0.00000000
-86.86474569   6.26760579   0.00000000
-86.76474569   6.26758894   0.00000000
-86.66474569   6.26757194   0.00000000
-86.56474569   6.26755479   0.00000000
-86.46474569   6.26753747   0.00000000
-86.36474569   6.26751999   0.00000000
-86.26474569   6.26750235   0.00000000
-86.16474569   6.26748454   0.00000000
-86.06474569   6.26746657   0.00000000
-85.96474569   6.26744843   0.00000000
-85.86474569   6.26743013   0.00000000
-85.76474569   6.26741165   0.00000000
-85.66474569   6.26739301   0.00000000
-85.56474569   6.26737419   0.00000000
-85.46474569   6.26735520   0.00000000
-85.36474569   6.26733604   0.00000000
-85.26474569   6.26731670   0.00000000
-85.16474569   6.26729718   0.00000000
-85.06474569   6.26727748   0.00000000
-84.96474569   6.26725760   0.00000000
-84.86474569   6.26723754   0.00000000
-84.76474569   6.26721730   0.00000000
-84.66474569   6.26719688   0.00000000
-84.56474569   6.26717626   0.00000000
-84.46474569   6.26715546   0.00000000
-84.36474569   6.26713447   0.00000000
-84.26474569   6.26711329   0.00000000
-84.16474569   6.26709192   0.00000000
-84.06474569   6.26707036   0.00000000
-83.96474569   6.26704859   0.00000000
-83.86474569   6.26702664   0.00000000
-83.76474569   6.26700448   0.00000000
-83.66474569   6.26698213   0.00000000
-83.56474569   6.26695957   0.00000000
-83.46474569   6.26693681   0.00000000
-83.36474569   6.26691385   0.00000000
-83.26474569   6.26689068   0.00000000
-83.16474569   6.26686730   0.00000000
-83.06474569   6.26684372   0.00000000
-82.96474569   6.26681992   0.00000000
-82.86474569   6.26679591   0.00000000
-82.76474569   6.26677169   0.00000000
-82.66474569   6.26674725   0.00000000
-82.56474569   6.26672259   0.00000000
-82.46474569   6.26669772   0.00000000
-82.36474569   6.26667262   0.00000000
-82.26474569   6.26664730   0.00000000
-82.16474569   6.26662176   0.00000000
-82.06474569   6.26659599   0.00000000
-81.96474569   6.26657000   0.00000000
-81.86474569   6.26654377   0.00000000
-81.76474569   6.26651731   0.00000000
-81.66474569   6.26649063   0.00000000
-81.56474569   6.26646370   0.00000000
-81.46474569   6.26643654   0.00000000
-81.36474569   6.26640915   0.00000000
-81.26474569   6.26638151   0.00000000
-81.16474569   6.26635363   0.00000000
-81.06474569   6.26632551   0.00000000
-80.96474569   6.26629714   0.00000000
-80.86474569   6.26626852   0.00000000
-80.76474569   6.26623966   0.00000000
-80.66474569   6.26621055   0.00000000
-80.56474569   6.26618118   0.00000000
-80.46474569   6.26615156   0.00000000
-80.36474569   6.26612168   0.00000000
-80.26474569   6.26609154   0.00000000
-80.16474569   6.26606115   0.00000000
-80.06474569   6.26603049   0.00000000
-79.96474569   6.26599957   0.00000000
-79.86474569   6.26596838   0.00000000
-79.76474569   6.26593692   0.00000000
-79.66474569   6.26590519   0.00000000
-79.56474569   6.26587320   0.00000000
-79.46474569   6.26584092   0.00000000
-79.36474569   6.26580838   0.00000000
-79.26474569   6.26577555   0.00000000
-79.16474569   6.26574244   0.00000000
-79.06474569   6.26570906   0.00000000
-78.96474569   6.26567538   0.00000000
-78.86474569   6.26564143   0.00000000
-78.76474569   6.26560718   0.00000000
-78.66474569   6.26557264   0.00000000
-78.56474569   6.26553782   0.00000000
-78.46474569   6.26550269   0.00000000
-78.36474569   6.26546728   0.00000000
-78.26474569   6.26543156   0.00000000
-78.16474569   6.26539554   0.00000000
-78.06474569   6.26535922   0.00000000
-77.96474569   6.26532259   0.00000000
-77.86474569   6.26528566   0.00000000
-77.76474569   6.26524842   0.00000000
-77.66474569   6.26521086   0.00000000
-77.56474569   6.26517300   0.00000000
-77.46474569   6.26513481   0.00000000
-77.36474569   6.26509631   0.00000000
-77.26474569   6.26505749   0.00000000
-77.16474569   6.26501834   0.00000000
-77.06474569   6.26497887   0.00000000
-76.96474569   6.26493908   0.00000000
-76.86474569   6.26489895   0.00000000
-76.76474569   6.26485849   0.00000000
-76.66474569   6.26481770   0.00000000
-76.56474569   6.26477657   0.00000000
-76.46474569   6.26473511   0.00000000
-76.36474569   6.26469330   0.00000000
-76.26474569   6.26465115   0.00000000
-76.16474569   6.26460865   0.00000000
-76.06474569   6.26456581   0.00000000
-75.96474569   6.26452261   0.00000000
-75.86474569   6.26447906   0.00000000
-75.76474569   6.26443516   0.00000000
-75.66474569   6.26439090   0.00000000
-75.56474569   6.26434627   0.00000000
-75.46474569   6.26430129   0.00000000
-75.36474569   6.26425594   0.00000000
-75.26474569   6.26421022   0.00000000
-75.16474569   6.26416414   0.00000000
-75.06474569   6.26411768   0.00000000
-74.96474569   6.26407084   0.00000000
-74.86474569   6.26402363   0.00000000
-74.76474569   6.26397604   0.00000000
-74.66474569   6.26392806   0.00000000
-74.56474569   6.26387970   0.00000000
-74.46474569   6.26383095   0.00000000
-74.36474569   6.26378181   0.00000000
-74.26474569   6.26373228   0.00000000
-74.16474569   6.26368236   0.00000000
-74.06474569   6.26363203   0.00000000
-73.96474569   6.26358130   0.00000000
-73.86474569   6.26353017   0.00000000
-73.76474569   6.26347864   0.00000000
-73.66474569   6.26342669   0.00000000
-73.56474569   6.26337434   0.00000000
-73.46474569   6.26332157   0.00000000
-73.36474569   6.26326838   0.00000000
-73.26474569   6.26321477   0.00000000
-73.16474569   6.26316075   0.00000000
-73.06474569   6.26310629   0.00000000
-72.96474569   6.26305141   0.00000000
-72.86474569   6.26299610   0.00000000
-72.76474569   6.26294035   0.00000000
-72.66474569   6.26288417   0.00000000
-72.56474569   6.26282755   0.00000000
-72.46474569   6.26277049   0.00000000
-72.36474569   6.26271298   0.00000000
-72.26474569   6.26265502   0.00000000
-72.16474569   6.26259662   0.00000000
-72.06474569   6.26253776   0.00000000
-71.96474569   6.26247844   0.00000000
-71.86474569   6.26241867   0.00000000
-71.76474569   6.26235844   0.00000000
-71.66474569   6.26229774   0.00000000
-71.56474569   6.26223657   0.00000000
-71.46474569   6.26217493   0.00000000
-71.36474569   6.26211282   0.00000000
-71.26474569   6.26205023   0.00000000
-71.16474569   6.26198716   0.00000000
-71.06474569   6.26192361   0.00000000
-70.96474569   6.26185957   0.00000000
-70.86474569   6.26179505   0.00000000
-70.76474569   6.26173003   0.00000000
-70.66474569   6.26166452   0.00000000
-70.56474569   6.26159851   0.00000000
-70.46474569   6.26153200   0.00000000
-70.36474569   6.26146498   0.00000000
-70.26474569   6.26139746   0.00000000
-70.16474569   6.26132943   0.00000000
-70.06474569   6.26126089   0.00000000
-69.96474569   6.26119183   0.00000000
-69.86474569   6.26112225   0.00000000
-69.76474569   6.26105214   0.00000000
-69.66474569   6.26098152   0.00000000
-69.56474569   6.26091036   0.00000000
-69.46474569   6.26083867   0.00000000
-69.36474569   6.26076644   0.00000000
-69.26474569   6.26069368   0.00000000
-69.16474569   6.26062037   0.00000000
-69.06474569   6.26054652   0.00000000
-68.96474569   6.26047212   0.00000000
-68.86474569   6.26039717   0.00000000
-68.76474569   6.26032167   0.00000000
-68.66474569   6.26024560   0.00000000
-68.56474569   6.26016898   0.00000000
-68.46474569   6.26009179   0.00000000
-68.36474569   6.26001403   0.00000000
-68.26474569   6.25993570   0.00000000
-68.16474569   6.25985680   0.00000000
-68.06474569   6.25977731   0.00000000
-67.96474569   6.25969725   0.00000000
-67.86474569   6.25961660   0.00000000
-67.76474569   6.25953536   0.00000000
-67.66474569   6.25945353   0.00000000
-67.56474569   6.25937111   0.00000000
-67.46474569   6.25928808   0.00000000
-67.36474569   6.25920446   0.00000000
-67.26474569   6.25912023   0.00000000
-67.16474569   6.25903539   0.00000000
-67.06474569   6.25894993   0.00000000
-66.96474569   6.25886387   0.00000000
-66.86474569   6.25877718   0.00000000
-66.76474569   6.25868987   0.00000000
-66.66474569   6.25860193   0.00000000
-66.56474569   6.25851336   0.00000000
-66.46474569   6.25842416   0.00000000
-66.36474569   6.25833432   0.00000000
-66.26474569   6.25824384   0.00000000
-66.16474569   6.25815271   0.00000000
-66.06474569   6.25806094   0.00000000
-65.96474569   6.25796852   0.00000000
-65.86474569   6.25787544   0.00000000
-65.76474569   6.25778170   0.00000000
-65.66474569   6.25768730   0.00000000
-65.56474569   6.25759223   0.00000000
-65.46474569   6.25749649   0.00000000
-65.36474569   6.25740008   0.00000000
-65.26474569   6.25730299   0.00000000
-65.16474569   6.25720522   0.00000000
-65.06474569   6.25710676   0.00000000
-64.96474569   6.25700762   0.00000000
-64.86474569   6.25690779   0.00000000
-64.76474569   6.25680725   0.00000000
-64.66474569   6.25670602   0.00000000
-64.56474569   6.25660409   0.00000000
-64.46474569   6.25650144   0.00000000
-64.36474569   6.25639809   0.00000000
-64.26474569   6.25629402   0.00000000
-64.16474569   6.25618923   0.00000000
-64.06474569   6.25608372   0.00000000
-63.96474569   6.25597749   0.00000000
-63.86474569   6.25587052   0.00000000
-63.76474569   6.25576282   0.00000000
-63.66474569   6.25565438   0.00000000
-63.56474569   6.25554520   0.00000000
-63.46474569   6.25543527   0.00000000
-63.36474569   6.25532459   0.00000000
-63.26474569   6.25521316   0.00000000
-63.16474569   6.25510097   0.00000000
-63.06474569   6.25498802   0.00000000
-62.96474569   6.25487431   0.00000000
-62.86474569   6.25475982   0.00000000
-62.76474569   6.25464457   0.00000000
-62.66474569   6.25452853   0.00000000
-62.56474569   6.25441171   0.00000000
-62.46474569   6.25429411   0.00000000
-62.36474569   6.25417572   0.00000000
-62.26474569   6.25405653   0.00000000
-62.16474569   6.25393655   0.00000000
-62.06474569   6.25381576   0.00000000
-61.96474569   6.25369417   0.00000000
-61.86474569   6.25357177   0.00000000
-61.76474569   6.25344855   0.00000000
-61.66474569   6.25332452   0.00000000
-61.56474569   6.25319967   0.00000000
-61.46474569   6.25307399   0.00000000
-61.36474569   6.25294748   0.00000000
-61.26474569   6.25282013   0.00000000
-61.16474569   6.25269195   0.00000000
-61.06474569   6.25256292   0.00000000
-60.96474569   6.25243305   0.00000000
-60.86474569   6.25230233   0.00000000
-60.76474569   6.25217075   0.00000000
-60.66474569   6.25203831   0.00000000
-60.56474569   6.25190501   0.00000000
-60.46474569   6.25177084   0.00000000
-60.36474569   6.25163580   0.00000000
-60.26474569   6.25149989   0.00000000
-60.16474569   6.25136309   0.00000000
-60.06474569   6.25122541   0.00000000
-59.96474569   6.25108684   0.00000000
-59.86474569   6.25094738   0.00000000
-59.76474569   6.25080702   0.00000000
-59.66474569   6.25066576   0.00000000
-59.56474569   6.25052359   0.00000000
-59.46474569   6.25038052   0.00000000
-59.36474569   6.25023653   0.00000000
-59.26474569   6.25009162   0.00000000
-59.16474569   6.24994579   0.00000000
-59.06474569   6.24979903   0.00000000
-58.96474569   6.24965134   0.00000000
-58.86474569   6.24950271   0.00000000
-58.76474569   6.24935315   0.00000000
-58.66474569   6.24920264   0.00000000
-58.56474569   6.24905118   0.00000000
-58.46474569   6.24889876   0.00000000
-58.36474569   6.24874539   0.00000000
-58.26474569   6.24859106   0.00000000
-58.16474569   6.24843576   0.00000000
-58.06474569   6.24827950   0.00000000
-57.96474569   6.24812225   0.00000000
-57.86474569   6.24796403   0.00000000
-57.76474569   6.24780482   0.00000000
-57.66474569   6.24764463   0.00000000
-57.56474569   6.24748344   0.00000000
-57.46474569   6.24732126   0.00000000
-57.36474569   6.24715807   0.00000000
-57.26474569   6.24699388   0.00000000
-57.16474569   6.24682868   0.00000000
-57.06474569   6.24666247   0.00000000
-56.96474569   6.24649523   0.00000000
-56.86474569   6.24632697   0.00000000
-56.76474569   6.24615769   0.00000000
-56.66474569   6.24598737   0.00000000
-56.56474569   6.24581601   0.00000000
-56.46474569   6.24564362   0.00000000
-56.36474569   6.24547017   0.00000000
-56.26474569   6.24529568   0.00000000
-56.16474569   6.24512013   0.00000000
-56.06474569   6.24494353   0.00000000
-55.96474569   6.24476585   0.00000000
-55.86474569   6.24458712   0.00000000
-55.76474569   6.24440730   0.00000000
-55.66474569   6.24422641   0.00000000
-55.56474569   6.24404444   0.00000000
-55.46474569   6.24386139   0.00000000
-55.36474569   6.24367724   0.00000000
-55.26474569   6.24349200   0.00000000
-55.16474569   6.24330565   0.00000000
-55.06474569   6.24311821   0.00000000
-54.96474569   6.24292965   0.00000000
-54.86474569   6.24273998   0.00000000
-54.76474569   6.24254919   0.00000000
-54.66474569   6.24235728   0.00000000
-54.56474569   6.24216425   0.00000000
-54.46474569   6.24197008   0.00000000
-54.36474569   6.24177477   0.00000000
-54.26474569   6.24157833   0.00000000
-54.16474569   6.24138074   0.00000000
-54.06474569   6.24118200   0.00000000
-53.96474569   6.24098210   0.00000000
-53.86474569   6.24078105   0.00000000
-53.76474569   6.24057884   0.00000000
-53.66474569   6.24037545   0.00000000
-53.56474569   6.24017090   0.00000000
-53.46474569   6.23996516   0.00000000
-53.36474569   6.23975825   0.00000000
-53.26474569   6.23955015   0.00000000
-53.16474569   6.23934085   0.00000000
-53.06474569   6.23913037   0.00000000
-52.96474569   6.23891868   0.00000000
-52.86474569   6.23870579   0.00000000
-52.76474569   6.23849169   0.00000000
-52.66474569   6.23827638   0.00000000
-52.56474569   6.23805984   0.00000000
-52.46474569   6.23784209   0.00000000
-52.36474569   6.23762311   0.00000000
-52.26474569   6.23740290   0.00000000
-52.16474569   6.23718145   0.00000000
-52.06474569   6.23695876   0.00000000
-51.96474569   6.23673482   0.00000000
-51.86474569   6.23650964   0.00000000
-51.76474569   6.23628320   0.00000000
-51.66474569   6.23605550   0.00000000
-51.56474569   6.23582654   0.00000000
-51.46474569   6.23559630   0.00000000
-51.36474569   6.23536480   0.00000000
-51.26474569   6.23513202   0.00000000
-51.16474569   6.23489796   0.00000000
-51.06474569   6.23466261   0.00000000
-50.96474569   6.23442597   0.00000000
-50.86474569   6.23418804   0.00000000
-50.76474569   6.23394880   0.00000000
-50.66474569   6.23370827   0.00000000
-50.56474569   6.23346642   0.00000000
-50.46474569   6.23322326   0.00000000
-50.36474569   6.23297878   0.00000000
-50.26474569   6.23273298   0.00000000
-50.16474569   6.23248585   0.00000000
-50.06474569   6.23223739   0.00000000
-49.96474569   6.23198759   0.00000000
-49.86474569   6.23173646   0.00000000
-49.76474569   6.23148398   0.00000000
-49.66474569   6.23123015   0.00000000
-49.56474569   6.23097496   0.00000000
-49.46474569   6.23071842   0.00000000
-49.36474569   6.23046051   0.00000000
-49.26474569   6.23020124   0.00000000
-49.16474569   6.22994060   0.00000000
-49.06474569   6.22967858   0.00000000
-48.96474569   6.22941517   0.00000000
-48.86474569   6.22915039   0.00000000
-48.76474569   6.22888421   0.00000000
-48.66474569   6.22861664   0.00000000
-48.56474569   6.22834767   0.00000000
-48.46474569   6.22807730   0.00000000
-48.36474569   6.22780552   0.00000000
-48.26474569   6.22753233   0.00000000
-48.16474569   6.22725773   0.00000000
-48.06474569   6.22698170   0.00000000
-47.96474569   6.22670425   0.00000000
-47.86474569   6.22642537   0.00000000
-47.76474569   6.22614506   0.00000000
-47.66474569   6.22586331   0.00000000
-47.56474569   6.22558011   0.00000000
-47.46474569   6.22529547   0.00000000
-47.36474569   6.22500938   0.00000000
-47.26474569   6.22472184   0.00000000
-47.16474569   6.22443283   0.00000000
-47.06474569   6.22414236   0.00000000
-46.96474569   6.22385042   0.00000000
-46.86474569   6.22355702   0.00000000
-46.76474569   6.22326213   0.00000000
-46.66474569   6.22296576   0.00000000
-46.56474569   6.22266791   0.00000000
-46.46474569   6.22236857   0.00000000
-46.36474569   6.22206774   0.00000000
-46.26474569   6.22176540   0.00000000
-46.16474569   6.22146157   0.00000000
-46.06474569   6.22115623   0.00000000
-45.96474569   6.22084938   0.00000000
-45.86474569   6.22054101   0.00000000
-45.76474569   6.22023113   0.00000000
-45.66474569   6.21991972   0.00000000
-45.56474569   6.21960679   0.00000000
-45.46474569   6.21929233   0.00000000
-45.36474569   6.21897633   0.00000000
-45.26474569   6.21865879   0.00000000
-45.16474569   6.21833971   0.00000000
-45.06474569   6.21801908   0.00000000
-44.96474569   6.21769690   0.00000000
-44.86474569   6.21737316   0.00000000
-44.76474569   6.21704786   0.00000000
-44.66474569   6.21672100   0.00000000
-44.56474569   6.21639258   0.00000000
-44.46474569   6.21606258   0.00000000
-44.36474569   6.21573101   0.00000000
-44.26474569   6.21539785   0.00000000
-44.16474569   6.21506312   0.00000000
-44.06474569   6.21472679   0.00000000
-43.96474569   6.21438888   0.00000000
-43.86474569   6.21404937   0.00000000
-43.76474569   6.21370826   0.00000000
-43.66474569   6.21336555   0.00000000
-43.56474569   6.21302123   0.00000000
-43.46474569   6.21267530   0.00000000
-43.36474569   6.21232776   0.00000000
-43.26474569   6.21197860   0.00000000
-43.16474569   6.21162782   0.00000000
-43.06474569   6.21127541   0.00000000
-42.96474569   6.21092137   0.00000000
-42.86474569   6.21056570   0.00000000
-42.76474569   6.21020839   0.00000000
-42.66474569   6.20984945   0.00000000
-42.56474569   6.20948885   0.00000000
-42.46474569   6.20912662   0.00000000
-42.36474569   6.20876272   0.00000000
-42.26474569   6.20839718   0.00000000
-42.16474569   6.20802997   0.00000000
-42.06474569   6.20766111   0.00000000
-41.96474569   6.20729057   0.00000000
-41.86474569   6.20691837   0.00000000
-41.76474569   6.20654450   0.00000000
-41.66474569   6.20616895   0.00000000
-41.56474569   6.20579172   0.00000000
-41.46474569   6.20541280   0.00000000
-41.36474569   6.20503220   0.00000000
-41.26474569   6.20464991   0.00000000
-41.16474569   6.20426593   0.00000000
-41.06474569   6.20388025   0.00000000
-40.96474569   6.20349287   0.00000000
-40.86474569   6.20310378   0.00000000
-40.76474569   6.20271299   0.00000000
-40.66474569   6.20232049   0.00000000
